"","percent_sand","latitude","percent_C","WINTER.PRECIPITATION","region","SPRING.MAX.TEMPERATURE","ANNUAL.MIN.TEMPERATURE","total_N","stems","NO3","samplename","WINTER.MAX.TEMPERATURE","host","site","sum_damage","SUMMER.PRECIPITATION","x_coordinate","SampleNumber","av_soil_depth","longitude","NH4","SPRING.MEAN.TEMPERATURE","WINTER.MEAN.TEMPERATURE","soil_texture","SPRING.DEWPOINT.TEMPERATURE","WINTER.MIN.TEMPERATURE","SPRING.PRECIPITATION","plant_area","SUMMER.MAX.TEMPERATURE","ANNUAL.MAX.TEMPERATURE","percent_silt","ANNUAL.DEWPOINT.TEMPERATURE","SPRING.MIN.TEMPERATURE","dist_from_origin","bulk_density","percent_N","site_nr","y_coordinate","SUMMER.MIN.TEMPERATURE","WINTER.DEWPOINT.TEMPERATURE","SUMMER.MEAN.TEMPERATURE","ANNUAL.PRECIPITATION","soil_pH","stems_browsed","C_to_N","elevation","percent_clay","seeds_produced","ANNUAL.MEAN.TEMPERATURE","SUMMER.DEWPOINT.TEMPERATURE","density"
"5grass","51.42","42.1","2.17","262.31","SOR","20.54","3.95","20.36","19","18.72","Fr_FF_1","10.41","F. roemeri","French_flat","2","34.31","980","1","20","-123.63","1.64","12.33","5.39","sandy clay loam","4.55","0.37","103.35","120.95","28.84","19.93","18.38","4.25","4.12","982.3563508","1.03","0.13","1","-68","7.37","1.08","18.11","1599.87","7.51","0","0.02","448","30.2","1143.61","11.94","7.12","18.76"
"6grass","51.42","42.1","2.17","262.31","SOR","20.54","3.95","20.36","23","18.72","Fr_FF_2","10.41","F. roemeri","French_flat","2","34.31","700","2","20","-123.63","1.64","12.33","5.39","sandy clay loam","4.55","0.37","103.35","150.8","28.84","19.93","18.38","4.25","4.12","707.1067812","1.03","0.13","1","-100","7.37","1.08","18.11","1599.87","7.51","0","0.02","448","30.2","1597.35","11.94","7.12","18.76"
"7grass","51.42","42.1","2.17","262.31","SOR","20.54","3.95","20.36","47","18.72","Fr_FF_3","10.41","F. roemeri","French_flat","2","34.31","620","3","20","-123.63","1.64","12.33","5.39","sandy clay loam","4.55","0.37","103.35","226.19","28.84","19.93","18.38","4.25","4.12","626.2140209","1.03","0.13","1","-88","7.37","1.08","18.11","1599.87","7.51","3","0.02","448","30.2","2648.36","11.94","7.12","18.76"
"8grass","51.42","42.1","2.17","262.31","SOR","20.54","3.95","20.36","38","18.72","Fr_FF_4","10.41","F. roemeri","French_flat","2","34.31","328","4","20","-123.63","1.64","12.33","5.39","sandy clay loam","4.55","0.37","103.35","439.82","28.84","19.93","18.38","4.25","4.12","332.9159053","1.03","0.13","1","57","7.37","1.08","18.11","1599.87","7.51","0","0.02","448","30.2","1583.46","11.94","7.12","18.76"
"9grass","51.42","42.1","2.17","262.31","SOR","20.54","3.95","20.36","35","18.72","Fr_FF_5","10.41","F. roemeri","French_flat","1","34.31","275","5","20","-123.63","1.64","12.33","5.39","sandy clay loam","4.55","0.37","103.35","791.68","28.84","19.93","18.38","4.25","4.12","306.3494736","1.03","0.13","1","-135","7.37","1.08","18.11","1599.87","7.51","0","0.02","448","30.2","1458.45","11.94","7.12","18.76"
"10grass","51.42","42.1","2.17","262.31","SOR","20.54","3.95","20.36","24","18.72","Fr_FF_6","10.41","F. roemeri","French_flat","1","34.31","45","6","20","-123.63","1.64","12.33","5.39","sandy clay loam","4.55","0.37","103.35","142.94","28.84","19.93","18.38","4.25","4.12","106.0235823","1.03","0.13","1","-96","7.37","1.08","18.11","1599.87","7.51","0","0.02","448","30.2","1444.56","11.94","7.12","18.76"
"11grass","51.42","42.1","2.17","262.31","SOR","20.54","3.95","20.36","33","18.72","Fr_FF_7","10.41","F. roemeri","French_flat","2","34.31","670","7","20","-123.63","1.64","12.33","5.39","sandy clay loam","4.55","0.37","103.35","141.37","28.84","19.93","18.38","4.25","4.12","674.7592163","1.03","0.13","1","-80","7.37","1.08","18.11","1599.87","7.51","0","0.02","448","30.2","2291.85","11.94","7.12","18.76"
"12grass","51.42","42.1","2.17","262.31","SOR","20.54","3.95","20.36","9","18.72","Fr_FF_8","10.41","F. roemeri","French_flat","2","34.31","150","8","20","-123.63","1.64","12.33","5.39","sandy clay loam","4.55","0.37","103.35","62.83","28.84","19.93","18.38","4.25","4.12","164.693655","1.03","0.13","1","68","7.37","1.08","18.11","1599.87","7.51","0","0.02","448","30.2","333.36","11.94","7.12","18.76"
"13grass","51.42","42.1","2.17","262.31","SOR","20.54","3.95","20.36","31","18.72","Fr_FF_9","10.41","F. roemeri","French_flat","2","34.31","353","9","20","-123.63","1.64","12.33","5.39","sandy clay loam","4.55","0.37","103.35","125.66","28.84","19.93","18.38","4.25","4.12","358.0628436","1.03","0.13","1","60","7.37","1.08","18.11","1599.87","7.51","0","0.02","448","30.2","1435.3","11.94","7.12","18.76"
"14grass","51.42","42.1","2.17","262.31","SOR","20.54","3.95","20.36","1","18.72","Fr_FF_10","10.41","F. roemeri","French_flat","2","34.31","430","10","20","-123.63","1.64","12.33","5.39","sandy clay loam","4.55","0.37","103.35","117.81","28.84","19.93","18.38","4.25","4.12","447.2460173","1.03","0.13","1","123","7.37","1.08","18.11","1599.87","7.51","0","0.02","448","30.2","41.67","11.94","7.12","18.76"
"15grass","51.42","42.1","2.17","262.31","SOR","20.54","3.95","20.36","5","18.72","Fr_FF_11","10.41","F. roemeri","French_flat","1","34.31","855","11","20","-123.63","1.64","12.33","5.39","sandy clay loam","4.55","0.37","103.35","455.53","28.84","19.93","18.38","4.25","4.12","859.5167247","1.03","0.13","1","88","7.37","1.08","18.11","1599.87","7.51","0","0.02","448","30.2","277.8","11.94","7.12","18.76"
"16grass","51.42","42.1","2.17","262.31","SOR","20.54","3.95","20.36","8","18.72","Fr_FF_12","10.41","F. roemeri","French_flat","2","34.31","499","12","20","-123.63","1.64","12.33","5.39","sandy clay loam","4.55","0.37","103.35","42.41","28.84","19.93","18.38","4.25","4.12","512.0800719","1.03","0.13","1","115","7.37","1.08","18.11","1599.87","7.51","0","0.02","448","30.2","333.36","11.94","7.12","18.76"
"17grass","28.92","42.47","2.5","87.34","SOR","20.79","4.74","28.8","2","26.18","Fr_UT_1","10.38","F. roemeri","Upper_Table","2","18.85","1486","25","14","-122.88","2.62","12.94","5.39","clay loam","5.21","0.39","37.62","226.19","28.64","19.94","32.91","4.88","5.08","1500.765138","0.95","0.2","5","210","8.76","1.69","18.7","575.23","7.31","1","0.02","418","38.17","115.75","12.34","7.73","13.32"
"18grass","28.92","42.47","2.5","87.34","SOR","20.79","4.74","28.8","4","26.18","Fr_UT_2","10.38","F. roemeri","Upper_Table","2","18.85","1486","26","14","-122.88","2.62","12.94","5.39","clay loam","5.21","0.39","37.62","179.07","28.64","19.94","32.91","4.88","5.08","1497.103871","0.95","0.2","5","182","8.76","1.69","18.7","575.23","7.31","0","0.02","418","38.17","314.84","12.34","7.73","13.32"
"19grass","28.92","42.47","2.5","87.34","SOR","20.79","4.74","28.8","7","26.18","Fr_UT_3","10.38","F. roemeri","Upper_Table","2","18.85","1385","27","14","-122.88","2.62","12.94","5.39","clay loam","5.21","0.39","37.62","280.39","28.64","19.94","32.91","4.88","5.08","1387.921107","0.95","0.2","5","-90","8.76","1.69","18.7","575.23","7.31","0","0.02","418","38.17","583.38","12.34","7.73","13.32"
"20grass","28.92","42.47","2.5","87.34","SOR","20.79","4.74","28.8","26","26.18","Fr_UT_4","10.38","F. roemeri","Upper_Table","2","18.85","890","28","14","-122.88","2.62","12.94","5.39","clay loam","5.21","0.39","37.62","175.93","28.64","19.94","32.91","4.88","5.08","897.2714194","0.95","0.2","5","-114","8.76","1.69","18.7","575.23","7.31","1","0.02","418","38.17","1389","12.34","7.73","13.32"
"21grass","28.92","42.47","2.5","87.34","SOR","20.79","4.74","28.8","7","26.18","Fr_UT_5","10.38","F. roemeri","Upper_Table","2","18.85","795","29","14","-122.88","2.62","12.94","5.39","clay loam","5.21","0.39","37.62","188.5","28.64","19.94","32.91","4.88","5.08","803.7095246","0.95","0.2","5","-118","8.76","1.69","18.7","575.23","7.31","0","0.02","418","38.17","648.2","12.34","7.73","13.32"
"22grass","28.92","42.47","2.5","87.34","SOR","20.79","4.74","28.8","3","26.18","Fr_UT_6","10.38","F. roemeri","Upper_Table","3","18.85","673","30","14","-122.88","2.62","12.94","5.39","clay loam","5.21","0.39","37.62","125.66","28.64","19.94","32.91","4.88","5.08","689.5135967","0.95","0.2","5","-150","8.76","1.69","18.7","575.23","7.31","0","0.02","418","38.17","222.24","12.34","7.73","13.32"
"23grass","28.92","42.47","2.5","87.34","SOR","20.79","4.74","28.8","1","26.18","Fr_UT_7","10.38","F. roemeri","Upper_Table","2","18.85","640","31","14","-122.88","2.62","12.94","5.39","clay loam","5.21","0.39","37.62","186.92","28.64","19.94","32.91","4.88","5.08","642.8063472","0.95","0.2","5","-60","8.76","1.69","18.7","575.23","7.31","0","0.02","418","38.17","46.3","12.34","7.73","13.32"
"24grass","28.92","42.47","2.5","87.34","SOR","20.79","4.74","28.8","1","26.18","Fr_UT_8","10.38","F. roemeri","Upper_Table","2","18.85","582","32","14","-122.88","2.62","12.94","5.39","clay loam","5.21","0.39","37.62","94.25","28.64","19.94","32.91","4.88","5.08","583.8150392","0.95","0.2","5","-46","8.76","1.69","18.7","575.23","7.31","0","0.02","418","38.17","74.08","12.34","7.73","13.32"
"25grass","28.92","42.47","2.5","87.34","SOR","20.79","4.74","28.8","7","26.18","Fr_UT_9","10.38","F. roemeri","Upper_Table","3","18.85","542","33","14","-122.88","2.62","12.94","5.39","clay loam","5.21","0.39","37.62","125.66","28.64","19.94","32.91","4.88","5.08","546.003663","0.95","0.2","5","-66","8.76","1.69","18.7","575.23","7.31","0","0.02","418","38.17","486.15","12.34","7.73","13.32"
"26grass","28.92","42.47","2.5","87.34","SOR","20.79","4.74","28.8","7","26.18","Fr_UT_10","10.38","F. roemeri","Upper_Table","3","18.85","92","34","14","-122.88","2.62","12.94","5.39","clay loam","5.21","0.39","37.62","263.89","28.64","19.94","32.91","4.88","5.08","92.13576938","0.95","0.2","5","-5","8.76","1.69","18.7","575.23","7.31","0","0.02","418","38.17","550.97","12.34","7.73","13.32"
"27grass","28.92","42.47","2.5","87.34","SOR","20.79","4.74","28.8","4","26.18","Fr_UT_11","10.38","F. roemeri","Upper_Table","1","18.85","139","35","14","-122.88","2.62","12.94","5.39","clay loam","5.21","0.39","37.62","230.91","28.64","19.94","32.91","4.88","5.08","251.8352636","0.95","0.2","5","210","8.76","1.69","18.7","575.23","7.31","0","0.02","418","38.17","611.16","12.34","7.73","13.32"
"28grass","28.92","42.47","2.5","87.34","SOR","20.79","4.74","28.8","11","26.18","Fr_UT_12","10.38","F. roemeri","Upper_Table","3","18.85","222","36","14","-122.88","2.62","12.94","5.39","clay loam","5.21","0.39","37.62","98.96","28.64","19.94","32.91","4.88","5.08","341.1231449","0.95","0.2","5","259","8.76","1.69","18.7","575.23","7.31","0","0.02","418","38.17","1069.53","12.34","7.73","13.32"
"29grass","29.53","44.03","3.73","169.9","COR","17.86","5.4","21.78","2","17.58","Fr_HD_1","9.61","F. roemeri","Hazel_Dell","2","33.13","528","37","66.33","-123.22","4.2","11.7","5.72","clay","6.82","1.82","78.03","402.91","24.45","17.31","27.92","6.64","5.53","572","0.99","0.3","6","220","8.84","3.31","16.65","1124.22","6.52","0","0.03","169","42.55","148.16","11.36","9.8","9.33"
"30grass","29.53","44.03","3.73","169.9","COR","17.86","5.4","21.78","9","17.58","Fr_HD_2","9.61","F. roemeri","Hazel_Dell","1","33.13","712","38","66.33","-123.22","4.2","11.7","5.72","clay","6.82","1.82","78.03","226.19","24.45","17.31","27.92","6.64","5.53","740.9244226","0.99","0.3","6","205","8.84","3.31","16.65","1124.22","6.52","0","0.03","169","42.55","1166.76","11.36","9.8","9.33"
"31grass","29.53","44.03","3.73","169.9","COR","17.86","5.4","21.78","2","17.58","Fr_HD_3","9.61","F. roemeri","Hazel_Dell","2","33.13","715","39","66.33","-123.22","4.2","11.7","5.72","clay","6.82","1.82","78.03","414.69","24.45","17.31","27.92","6.64","5.53","732.0341522","0.99","0.3","6","157","8.84","3.31","16.65","1124.22","6.52","0","0.03","169","42.55","185.2","11.36","9.8","9.33"
"32grass","29.53","44.03","3.73","169.9","COR","17.86","5.4","21.78","0","17.58","Fr_HD_4","9.61","F. roemeri","Hazel_Dell","2","33.13","915","40","66.33","-123.22","4.2","11.7","5.72","clay","6.82","1.82","78.03","614.97","24.45","17.31","27.92","6.64","5.53","926.5748755","0.99","0.3","6","146","8.84","3.31","16.65","1124.22","6.52","0","0.03","169","42.55","0","11.36","9.8","9.33"
"33grass","29.53","44.03","3.73","169.9","COR","17.86","5.4","21.78","6","17.58","Fr_HD_5","9.61","F. roemeri","Hazel_Dell","1","33.13","1358","41","66.33","-123.22","4.2","11.7","5.72","clay","6.82","1.82","78.03","603.19","24.45","17.31","27.92","6.64","5.53","1366.259126","0.99","0.3","6","150","8.84","3.31","16.65","1124.22","6.52","0","0.03","169","42.55","555.6","11.36","9.8","9.33"
"34grass","29.53","44.03","3.73","169.9","COR","17.86","5.4","21.78","10","17.58","Fr_HD_6","9.61","F. roemeri","Hazel_Dell","1","33.13","1681","42","66.33","-123.22","4.2","11.7","5.72","clay","6.82","1.82","78.03","412.33","24.45","17.31","27.92","6.64","5.53","1691.040212","0.99","0.3","6","184","8.84","3.31","16.65","1124.22","6.52","0","0.03","169","42.55","1203.8","11.36","9.8","9.33"
"35grass","29.53","44.03","3.73","169.9","COR","17.86","5.4","21.78","5","17.58","Fr_HD_7","9.61","F. roemeri","Hazel_Dell","2","33.13","1845","43","66.33","-123.22","4.2","11.7","5.72","clay","6.82","1.82","78.03","530.93","24.45","17.31","27.92","6.64","5.53","1858.912047","0.99","0.3","6","227","8.84","3.31","16.65","1124.22","6.52","0","0.03","169","42.55","509.3","11.36","9.8","9.33"
"36grass","29.53","44.03","3.73","169.9","COR","17.86","5.4","21.78","21","17.58","Fr_HD_8","9.61","F. roemeri","Hazel_Dell","1","33.13","1864","44","66.33","-123.22","4.2","11.7","5.72","clay","6.82","1.82","78.03","164.93","24.45","17.31","27.92","6.64","5.53","1873.456698","0.99","0.3","6","188","8.84","3.31","16.65","1124.22","6.52","0","0.03","169","42.55","2041.83","11.36","9.8","9.33"
"37grass","29.53","44.03","3.73","169.9","COR","17.86","5.4","21.78","6","17.58","Fr_HD_9","9.61","F. roemeri","Hazel_Dell","3","33.13","2015","45","66.33","-123.22","4.2","11.7","5.72","clay","6.82","1.82","78.03","765.76","24.45","17.31","27.92","6.64","5.53","2023.937993","0.99","0.3","6","190","8.84","3.31","16.65","1124.22","6.52","0","0.03","169","42.55","555.6","11.36","9.8","9.33"
"38grass","29.53","44.03","3.73","169.9","COR","17.86","5.4","21.78","8","17.58","Fr_HD_10","9.61","F. roemeri","Hazel_Dell","2","33.13","2099","46","66.33","-123.22","4.2","11.7","5.72","clay","6.82","1.82","78.03","527","24.45","17.31","27.92","6.64","5.53","2102.427407","0.99","0.3","6","120","8.84","3.31","16.65","1124.22","6.52","0","0.03","169","42.55","851.92","11.36","9.8","9.33"
"39grass","29.53","44.03","3.73","169.9","COR","17.86","5.4","21.78","1","17.58","Fr_HD_11","9.61","F. roemeri","Hazel_Dell","1","33.13","2510","47","66.33","-123.22","4.2","11.7","5.72","clay","6.82","1.82","78.03","571.77","24.45","17.31","27.92","6.64","5.53","2518.769541","0.99","0.3","6","210","8.84","3.31","16.65","1124.22","6.52","0","0.03","169","42.55","83.34","11.36","9.8","9.33"
"40grass","29.53","44.03","3.73","169.9","COR","17.86","5.4","21.78","2","17.58","Fr_HD_12","9.61","F. roemeri","Hazel_Dell","3","33.13","2649","48","66.33","-123.22","4.2","11.7","5.72","clay","6.82","1.82","78.03","197.92","24.45","17.31","27.92","6.64","5.53","2650.00566","0.99","0.3","6","73","8.84","3.31","16.65","1124.22","6.52","0","0.03","169","42.55","175.94","11.36","9.8","9.33"
"41grass","59.16","44.3","8.65","283.79","COR","15.13","3.49","25.94","9","15.2","Fr_HR_1","6.72","F. roemeri","Horse_Rock","1","80.06","118","49","3.66","-122.88","10.74","9.33","3.16","sandy loam","4.71","-0.39","176.14","226.19","21.84","14.56","25.03","4.39","3.53","212.7275253","0.37","0.6","7","-177","7.33","0.69","14.59","2159.97","6.01","0","0.03","627","15.81","958.41","9.03","7.77","11.28"
"42grass","59.16","44.3","8.65","283.79","COR","15.13","3.49","25.94","2","15.2","Fr_HR_2","6.72","F. roemeri","Horse_Rock","1","80.06","276","50","3.66","-122.88","10.74","9.33","3.16","sandy loam","4.71","-0.39","176.14","117.81","21.84","14.56","25.03","4.39","3.53","381.9319311","0.37","0.6","7","-264","7.33","0.69","14.59","2159.97","6.01","0","0.03","627","15.81","296.32","9.03","7.77","11.28"
"43grass","59.16","44.3","8.65","283.79","COR","15.13","3.49","25.94","5","15.2","Fr_HR_3","6.72","F. roemeri","Horse_Rock","1","80.06","349","51","3.66","-122.88","10.74","9.33","3.16","sandy loam","4.71","-0.39","176.14","253.68","21.84","14.56","25.03","4.39","3.53","444.3264566","0.37","0.6","7","-275","7.33","0.69","14.59","2159.97","6.01","0","0.03","627","15.81","416.7","9.03","7.77","11.28"
"44grass","59.16","44.3","8.65","283.79","COR","15.13","3.49","25.94","2","15.2","Fr_HR_4","6.72","F. roemeri","Horse_Rock","2","80.06","400","52","3.66","-122.88","10.74","9.33","3.16","sandy loam","4.71","-0.39","176.14","131.95","21.84","14.56","25.03","4.39","3.53","476.5301669","0.37","0.6","7","-259","7.33","0.69","14.59","2159.97","6.01","0","0.03","627","15.81","175.94","9.03","7.77","11.28"
"45grass","59.16","44.3","8.65","283.79","COR","15.13","3.49","25.94","1","15.2","Fr_HR_5","6.72","F. roemeri","Horse_Rock","1","80.06","560","53","3.66","-122.88","10.74","9.33","3.16","sandy loam","4.71","-0.39","176.14","307.09","21.84","14.56","25.03","4.39","3.53","626.9960127","0.37","0.6","7","-282","7.33","0.69","14.59","2159.97","6.01","0","0.03","627","15.81","157.42","9.03","7.77","11.28"
"46grass","59.16","44.3","8.65","283.79","COR","15.13","3.49","25.94","5","15.2","Fr_HR_6","6.72","F. roemeri","Horse_Rock","3","80.06","596","54","3.66","-122.88","10.74","9.33","3.16","sandy loam","4.71","-0.39","176.14","98.96","21.84","14.56","25.03","4.39","3.53","659.348163","0.37","0.6","7","-282","7.33","0.69","14.59","2159.97","6.01","0","0.03","627","15.81","578.75","9.03","7.77","11.28"
"47grass","59.16","44.3","8.65","283.79","COR","15.13","3.49","25.94","3","15.2","Fr_HR_7","6.72","F. roemeri","Horse_Rock","1","80.06","611","55","3.66","-122.88","10.74","9.33","3.16","sandy loam","4.71","-0.39","176.14","208.92","21.84","14.56","25.03","4.39","3.53","700.2035418","0.37","0.6","7","-346","7.33","0.69","14.59","2159.97","6.01","0","0.03","627","15.81","333.36","9.03","7.77","11.28"
"48grass","59.16","44.3","8.65","283.79","COR","15.13","3.49","25.94","1","15.2","Fr_HR_8","6.72","F. roemeri","Horse_Rock","2","80.06","658","56","3.66","-122.88","10.74","9.33","3.16","sandy loam","4.71","-0.39","176.14","120.95","21.84","14.56","25.03","4.39","3.53","674.0029674","0.37","0.6","7","-146","7.33","0.69","14.59","2159.97","6.01","0","0.03","627","15.81","78.71","9.03","7.77","11.28"
"49grass","59.16","44.3","8.65","283.79","COR","15.13","3.49","25.94","3","15.2","Fr_HR_9","6.72","F. roemeri","Horse_Rock","1","80.06","736","57","3.66","-122.88","10.74","9.33","3.16","sandy loam","4.71","-0.39","176.14","94.25","21.84","14.56","25.03","4.39","3.53","750.5364748","0.37","0.6","7","-147","7.33","0.69","14.59","2159.97","6.01","0","0.03","627","15.81","458.37","9.03","7.77","11.28"
"50grass","59.16","44.3","8.65","283.79","COR","15.13","3.49","25.94","1","15.2","Fr_HR_10","6.72","F. roemeri","Horse_Rock","2","80.06","829","58","3.66","-122.88","10.74","9.33","3.16","sandy loam","4.71","-0.39","176.14","77.75","21.84","14.56","25.03","4.39","3.53","835.12993","0.37","0.6","7","-101","7.33","0.69","14.59","2159.97","6.01","0","0.03","627","15.81","83.34","9.03","7.77","11.28"
"51grass","59.16","44.3","8.65","283.79","COR","15.13","3.49","25.94","2","15.2","Fr_HR_11","6.72","F. roemeri","Horse_Rock","2","80.06","950","59","3.66","-122.88","10.74","9.33","3.16","sandy loam","4.71","-0.39","176.14","164.93","21.84","14.56","25.03","4.39","3.53","950.8001893","0.37","0.6","7","-39","7.33","0.69","14.59","2159.97","6.01","0","0.03","627","15.81","240.76","9.03","7.77","11.28"
"52grass","59.16","44.3","8.65","283.79","COR","15.13","3.49","25.94","3","15.2","Fr_HR_12","6.72","F. roemeri","Horse_Rock","2","80.06","580","60","3.66","-122.88","10.74","9.33","3.16","sandy loam","4.71","-0.39","176.14","186.92","21.84","14.56","25.03","4.39","3.53","593.5284323","0.37","0.6","7","126","7.33","0.69","14.59","2159.97","6.01","0","0.03","627","15.81","263.91","9.03","7.77","11.28"
"53grass","69.83","46.91","13.2","167.4","WA","16.42","5.34","59.22","11","24.48","Fr_UW_1","8.51","F. roemeri","Upper_Weir","2","47.09","2577","61","22","-122.71","34.74","10.99","4.92","sandy loam","5.76","1.32","81.82","367.57","21.66","15.53","26.23","5.94","5.55","2578.091154","0.55","0.93","8","75","9.14","2.32","15.4","1185.22","5.51","0","0.03","162","3.93","1171.39","10.44","9.73","32.43"
"54grass","69.83","46.91","13.2","167.4","WA","16.42","5.34","59.22","2","24.48","Fr_UW_2","8.51","F. roemeri","Upper_Weir","2","47.09","2279","62","22","-122.71","34.74","10.99","4.92","sandy loam","5.76","1.32","81.82","164.93","21.66","15.53","26.23","5.94","5.55","2283.357615","0.55","0.93","8","141","9.14","2.32","15.4","1185.22","5.51","0","0.03","162","3.93","138.9","10.44","9.73","32.43"
"55grass","69.83","46.91","13.2","167.4","WA","16.42","5.34","59.22","11","24.48","Fr_UW_3","8.51","F. roemeri","Upper_Weir","3","47.09","2303","63","22","-122.71","34.74","10.99","4.92","sandy loam","5.76","1.32","81.82","172.79","21.66","15.53","26.23","5.94","5.55","2304.03342","0.55","0.93","8","69","9.14","2.32","15.4","1185.22","5.51","1","0.03","162","3.93","787.1","10.44","9.73","32.43"
"56grass","69.83","46.91","13.2","167.4","WA","16.42","5.34","59.22","3","24.48","Fr_UW_4","8.51","F. roemeri","Upper_Weir","2","47.09","2172","64","22","-122.71","34.74","10.99","4.92","sandy loam","5.76","1.32","81.82","86.39","21.66","15.53","26.23","5.94","5.55","2175.257456","0.55","0.93","8","119","9.14","2.32","15.4","1185.22","5.51","0","0.03","162","3.93","166.68","10.44","9.73","32.43"
"57grass","69.83","46.91","13.2","167.4","WA","16.42","5.34","59.22","23","24.48","Fr_UW_5","8.51","F. roemeri","Upper_Weir","1","47.09","1889","65","22","-122.71","34.74","10.99","4.92","sandy loam","5.76","1.32","81.82","329.87","21.66","15.53","26.23","5.94","5.55","1909.638971","0.55","0.93","8","280","9.14","2.32","15.4","1185.22","5.51","0","0.03","162","3.93","2023.31","10.44","9.73","32.43"
"58grass","69.83","46.91","13.2","167.4","WA","16.42","5.34","59.22","29","24.48","Fr_UW_6","8.51","F. roemeri","Upper_Weir","2","47.09","1782","66","22","-122.71","34.74","10.99","4.92","sandy loam","5.76","1.32","81.82","200.28","21.66","15.53","26.23","5.94","5.55","1787.648735","0.55","0.93","8","142","9.14","2.32","15.4","1185.22","5.51","0","0.03","162","3.93","2685.4","10.44","9.73","32.43"
"59grass","69.83","46.91","13.2","167.4","WA","16.42","5.34","59.22","9","24.48","Fr_UW_7","8.51","F. roemeri","Upper_Weir","3","47.09","1603","67","22","-122.71","34.74","10.99","4.92","sandy loam","5.76","1.32","81.82","153.94","21.66","15.53","26.23","5.94","5.55","1603.382051","0.55","0.93","8","35","9.14","2.32","15.4","1185.22","5.51","0","0.03","162","3.93","1500.12","10.44","9.73","32.43"
"60grass","69.83","46.91","13.2","167.4","WA","16.42","5.34","59.22","0","24.48","Fr_UW_8","8.51","F. roemeri","Upper_Weir","3","47.09","1570","68","22","-122.71","34.74","10.99","4.92","sandy loam","5.76","1.32","81.82","280.39","21.66","15.53","26.23","5.94","5.55","1596.377462","0.55","0.93","8","289","9.14","2.32","15.4","1185.22","5.51","0","0.03","162","3.93","0","10.44","9.73","32.43"
"61grass","69.83","46.91","13.2","167.4","WA","16.42","5.34","59.22","3","24.48","Fr_UW_9","8.51","F. roemeri","Upper_Weir","3","47.09","1635","69","22","-122.71","34.74","10.99","4.92","sandy loam","5.76","1.32","81.82","179.07","21.66","15.53","26.23","5.94","5.55","1650.13757","0.55","0.93","8","223","9.14","2.32","15.4","1185.22","5.51","0","0.03","162","3.93","236.13","10.44","9.73","32.43"
"62grass","69.83","46.91","13.2","167.4","WA","16.42","5.34","59.22","2","24.48","Fr_UW_10","8.51","F. roemeri","Upper_Weir","2","47.09","1087","70","22","-122.71","34.74","10.99","4.92","sandy loam","5.76","1.32","81.82","112.31","21.66","15.53","26.23","5.94","5.55","1146.963382","0.55","0.93","8","366","9.14","2.32","15.4","1185.22","5.51","0","0.03","162","3.93","175.94","10.44","9.73","32.43"
"63grass","69.83","46.91","13.2","167.4","WA","16.42","5.34","59.22","3","24.48","Fr_UW_11","8.51","F. roemeri","Upper_Weir","1","47.09","978","71","22","-122.71","34.74","10.99","4.92","sandy loam","5.76","1.32","81.82","112.31","21.66","15.53","26.23","5.94","5.55","1041.464354","0.55","0.93","8","358","9.14","2.32","15.4","1185.22","5.51","0","0.03","162","3.93","250.02","10.44","9.73","32.43"
"64grass","69.83","46.91","13.2","167.4","WA","16.42","5.34","59.22","15","24.48","Fr_UW_12","8.51","F. roemeri","Upper_Weir","2","47.09","721","72","22","-122.71","34.74","10.99","4.92","sandy loam","5.76","1.32","81.82","153.94","21.66","15.53","26.23","5.94","5.55","731.585265","0.55","0.93","8","124","9.14","2.32","15.4","1185.22","5.51","0","0.03","162","3.93","1458.45","10.44","9.73","32.43"
"65grass","84.47","48.21","11.9","62.58","WA","15.13","6.43","114.12","11","109.52","Fr_WH_1","8.5","F. roemeri","Whidbey","2","29.87","25","73","35.6","-122.62","4.6","10.87","5.68","loamy fine sand","6.26","2.86","42.74","267.04","19.27","14.3","10.36","6.28","6.61","105.0190459","1.02","0.9","9","-102","9.81","2.49","14.54","540.75","6.01","0","0.03","64","5.18","1324.18","10.37","10.09","23.16"
"66grass","84.47","48.21","11.9","62.58","WA","15.13","6.43","114.12","23","109.52","Fr_WH_2","8.5","F. roemeri","Whidbey","1","29.87","157","74","35.6","-122.62","4.6","10.87","5.68","loamy fine sand","6.26","2.86","42.74","200.28","19.27","14.3","10.36","6.28","6.61","172.7223205","1.02","0.9","9","-72","9.81","2.49","14.54","540.75","6.01","0","0.03","64","5.18","2129.8","10.37","10.09","23.16"
"67grass","84.47","48.21","11.9","62.58","WA","15.13","6.43","114.12","1","109.52","Fr_WH_3","8.5","F. roemeri","Whidbey","1","29.87","155","75","35.6","-122.62","4.6","10.87","5.68","loamy fine sand","6.26","2.86","42.74","200.28","19.27","14.3","10.36","6.28","6.61","164.468842","1.02","0.9","9","-55","9.81","2.49","14.54","540.75","6.01","0","0.03","64","5.18","46.3","10.37","10.09","23.16"
"68grass","84.47","48.21","11.9","62.58","WA","15.13","6.43","114.12","8","109.52","Fr_WH_4","8.5","F. roemeri","Whidbey","0","29.87","204","76","35.6","-122.62","4.6","10.87","5.68","loamy fine sand","6.26","2.86","42.74","120.95","19.27","14.3","10.36","6.28","6.61","237.6972865","1.02","0.9","9","-122","9.81","2.49","14.54","540.75","6.01","0","0.03","64","5.18","703.76","10.37","10.09","23.16"
"69grass","84.47","48.21","11.9","62.58","WA","15.13","6.43","114.12","1","109.52","Fr_WH_5","8.5","F. roemeri","Whidbey","2","29.87","308","77","35.6","-122.62","4.6","10.87","5.68","loamy fine sand","6.26","2.86","42.74","141.37","19.27","14.3","10.36","6.28","6.61","328.4204622","1.02","0.9","9","-114","9.81","2.49","14.54","540.75","6.01","1","0.03","64","5.18","0","10.37","10.09","23.16"
"70grass","84.47","48.21","11.9","62.58","WA","15.13","6.43","114.12","8.5","109.52","Fr_WH_6","8.5","F. roemeri","Whidbey","4","29.87","356","78","35.6","-122.62","4.6","10.87","5.68","loamy fine sand","6.26","2.86","42.74","160.22","19.27","14.3","10.36","6.28","6.61","372.0215048","1.02","0.9","9","-108","9.81","2.49","14.54","540.75","6.01","0","0.03","64","5.18","669.035","10.37","10.09","23.16"
"71grass","84.47","48.21","11.9","62.58","WA","15.13","6.43","114.12","17","109.52","Fr_WH_7","8.5","F. roemeri","Whidbey","1","29.87","358","79","35.6","-122.62","4.6","10.87","5.68","loamy fine sand","6.26","2.86","42.74","235.62","19.27","14.3","10.36","6.28","6.61","364.0329655","1.02","0.9","9","-66","9.81","2.49","14.54","540.75","6.01","0","0.03","64","5.18","2282.59","10.37","10.09","23.16"
"72grass","84.47","48.21","11.9","62.58","WA","15.13","6.43","114.12","6","109.52","Fr_WH_8","8.5","F. roemeri","Whidbey","1","29.87","427","80","35.6","-122.62","4.6","10.87","5.68","loamy fine sand","6.26","2.86","42.74","212.06","19.27","14.3","10.36","6.28","6.61","437.0102974","1.02","0.9","9","-93","9.81","2.49","14.54","540.75","6.01","0","0.03","64","5.18","777.84","10.37","10.09","23.16"
"73grass","84.47","48.21","11.9","62.58","WA","15.13","6.43","114.12","5","109.52","Fr_WH_9","8.5","F. roemeri","Whidbey","2","29.87","559","81","35.6","-122.62","4.6","10.87","5.68","loamy fine sand","6.26","2.86","42.74","141.37","19.27","14.3","10.36","6.28","6.61","622.1012779","1.02","0.9","9","-273","9.81","2.49","14.54","540.75","6.01","1","0.03","64","5.18","314.84","10.37","10.09","23.16"
"74grass","84.47","48.21","11.9","62.58","WA","15.13","6.43","114.12","37","109.52","Fr_WH_10","8.5","F. roemeri","Whidbey","2","29.87","398","82","35.6","-122.62","4.6","10.87","5.68","loamy fine sand","6.26","2.86","42.74","343.22","19.27","14.3","10.36","6.28","6.61","477.0461194","1.02","0.9","9","-263","9.81","2.49","14.54","540.75","6.01","0","0.03","64","5.18","6509.78","10.37","10.09","23.16"
"75grass","84.47","48.21","11.9","62.58","WA","15.13","6.43","114.12","8","109.52","Fr_WH_11","8.5","F. roemeri","Whidbey","2","29.87","539","83","35.6","-122.62","4.6","10.87","5.68","loamy fine sand","6.26","2.86","42.74","112.31","19.27","14.3","10.36","6.28","6.61","657.7613549","1.02","0.9","9","-377","9.81","2.49","14.54","540.75","6.01","0","0.03","64","5.18","703.76","10.37","10.09","23.16"
"76grass","84.47","48.21","11.9","62.58","WA","15.13","6.43","114.12","1","109.52","Fr_WH_12","8.5","F. roemeri","Whidbey","2","29.87","795","84","35.6","-122.62","4.6","10.87","5.68","loamy fine sand","6.26","2.86","42.74","120.95","19.27","14.3","10.36","6.28","6.61","804.1554576","1.02","0.9","9","121","9.81","2.49","14.54","540.75","6.01","0","0.03","64","5.18","115.75","10.37","10.09","23.16"
"77grass","33.13","42.35","3.05","106.49","SOR","16.91","5.27","20.83","5","14.02","Fr_RA_1","8.61","F. roemeri","Roxy_Ann","1","26.56","590","13","87","-122.79","6.81","10.67","4.72","clay loam","3.66","0.83","62.39","70.69","24.92","16.81","31.47","3.21","4.44","630.3840099","1.26","0.2","2","-222","10.55","-0.15","17.74","781.73","6.93","0","0.03","949","35.4","486.15","11.04","6.11","6.3"
"78grass","33.13","42.35","3.05","106.49","SOR","16.91","5.27","20.83","6","14.02","Fr_RA_2","8.61","F. roemeri","Roxy_Ann","1","26.56","778","14","87","-122.79","6.81","10.67","4.72","clay loam","3.66","0.83","62.39","56.55","24.92","16.81","31.47","3.21","4.44","815.9656856","1.26","0.2","2","-246","10.55","-0.15","17.74","781.73","6.93","0","0.03","949","35.4","527.82","11.04","6.11","6.3"
"79grass","33.13","42.35","3.05","106.49","SOR","16.91","5.27","20.83","3","14.02","Fr_RA_3","8.61","F. roemeri","Roxy_Ann","2","26.56","901","15","87","-122.79","6.81","10.67","4.72","clay loam","3.66","0.83","62.39","148.44","24.92","16.81","31.47","3.21","4.44","903.1998671","1.26","0.2","2","-63","10.55","-0.15","17.74","781.73","6.93","0","0.03","949","35.4","375.03","11.04","6.11","6.3"
"80grass","33.13","42.35","3.05","106.49","SOR","16.91","5.27","20.83","3","14.02","Fr_RA_4","8.61","F. roemeri","Roxy_Ann","2","26.56","1222","16","87","-122.79","6.81","10.67","4.72","clay loam","3.66","0.83","62.39","146.87","24.92","16.81","31.47","3.21","4.44","1222.040916","1.26","0.2","2","-10","10.55","-0.15","17.74","781.73","6.93","1","0.03","949","35.4","138.9","11.04","6.11","6.3"
"81grass","33.13","42.35","3.05","106.49","SOR","16.91","5.27","20.83","1","14.02","Fr_RA_5","8.61","F. roemeri","Roxy_Ann","3","26.56","1354","17","87","-122.79","6.81","10.67","4.72","clay loam","3.66","0.83","62.39","39.27","24.92","16.81","31.47","3.21","4.44","1356.541559","1.26","0.2","2","83","10.55","-0.15","17.74","781.73","6.93","0","0.03","949","35.4","60.19","11.04","6.11","6.3"
"82grass","33.13","42.35","3.05","106.49","SOR","16.91","5.27","20.83","12","14.02","Fr_RA_6","8.61","F. roemeri","Roxy_Ann","3","26.56","-90","18","87","-122.79","6.81","10.67","4.72","clay loam","3.66","0.83","62.39","50.27","24.92","16.81","31.47","3.21","4.44","288.4024965","1.26","0.2","2","274","10.55","-0.15","17.74","781.73","6.93","0","0.03","949","35.4","666.72","11.04","6.11","6.3"
"83grass","33.13","42.35","3.05","106.49","SOR","16.91","5.27","20.83","5","14.02","Fr_RA_7","8.61","F. roemeri","Roxy_Ann","2","26.56","-96","19","87","-122.79","6.81","10.67","4.72","clay loam","3.66","0.83","62.39","53.41","24.92","16.81","31.47","3.21","4.44","296.9461231","1.26","0.2","2","281","10.55","-0.15","17.74","781.73","6.93","0","0.03","949","35.4","324.1","11.04","6.11","6.3"
"84grass","33.13","42.35","3.05","106.49","SOR","16.91","5.27","20.83","2","14.02","Fr_RA_8","8.61","F. roemeri","Roxy_Ann","2","26.56","-110","20","87","-122.79","6.81","10.67","4.72","clay loam","3.66","0.83","62.39","38.48","24.92","16.81","31.47","3.21","4.44","318.5922158","1.26","0.2","2","299","10.55","-0.15","17.74","781.73","6.93","0","0.03","949","35.4","148.16","11.04","6.11","6.3"
"85grass","33.13","42.35","3.05","106.49","SOR","16.91","5.27","20.83","1","14.02","Fr_RA_9","8.61","F. roemeri","Roxy_Ann","2","26.56","-125","21","87","-122.79","6.81","10.67","4.72","clay loam","3.66","0.83","62.39","19.63","24.92","16.81","31.47","3.21","4.44","328.6959081","1.26","0.2","2","304","10.55","-0.15","17.74","781.73","6.93","0","0.03","949","35.4","60.19","11.04","6.11","6.3"
"86grass","33.13","42.35","3.05","106.49","SOR","16.91","5.27","20.83","1","14.02","Fr_RA_10","8.61","F. roemeri","Roxy_Ann","2","26.56","-100","22","87","-122.79","6.81","10.67","4.72","clay loam","3.66","0.83","62.39","21.99","24.92","16.81","31.47","3.21","4.44","304.8671842","1.26","0.2","2","288","10.55","-0.15","17.74","781.73","6.93","0","0.03","949","35.4","41.67","11.04","6.11","6.3"
"87grass","33.13","42.35","3.05","106.49","SOR","16.91","5.27","20.83","1","14.02","Fr_RA_11","8.61","F. roemeri","Roxy_Ann","1","26.56","-99","23","87","-122.79","6.81","10.67","4.72","clay loam","3.66","0.83","62.39","29.45","24.92","16.81","31.47","3.21","4.44","296.9865317","1.26","0.2","2","280","10.55","-0.15","17.74","781.73","6.93","0","0.03","949","35.4","50.93","11.04","6.11","6.3"
"88grass","33.13","42.35","3.05","106.49","SOR","16.91","5.27","20.83","5","14.02","Fr_RA_12","8.61","F. roemeri","Roxy_Ann","2","26.56","-90","24","87","-122.79","6.81","10.67","4.72","clay loam","3.66","0.83","62.39","60.48","24.92","16.81","31.47","3.21","4.44","293.1569545","1.26","0.2","2","279","10.55","-0.15","17.74","781.73","6.93","0","0.03","949","35.4","300.95","11.04","6.11","6.3"
"89grass","51.93","42.1","2.247","262.31","SOR","20.54","3.95","33.67","5","32.23","Dc_FF_1","10.41","D. californica","French_flat","2","34.31","9","85","47.33","-123.63","1.44","12.33","5.39","sandy clay loam","4.55","0.37","103.35","131.95","28.84","19.93","22.09","4.25","4.12","58.69412236","1.46","0.15","1","58","7.37","1.08","18.11","1599.87","7.53","0","0.0244","448","25.98","37.5","11.94","7.12","42.82"
"90grass","51.93","42.1","2.247","262.31","SOR","20.54","3.95","33.67","15","32.23","Dc_FF_2","10.41","D. californica","French_flat","1","34.31","108","86","47.33","-123.63","1.44","12.33","5.39","sandy clay loam","4.55","0.37","103.35","311.02","28.84","19.93","22.09","4.25","4.12","145.1654229","1.46","0.15","1","97","7.37","1.08","18.11","1599.87","7.53","0","0.0244","448","25.98","150","11.94","7.12","42.82"
"91grass","51.93","42.1","2.247","262.31","SOR","20.54","3.95","33.67","10","32.23","Dc_FF_3","10.41","D. californica","French_flat","2","34.31","113","87","47.33","-123.63","1.44","12.33","5.39","sandy clay loam","4.55","0.37","103.35","208.92","28.84","19.93","22.09","4.25","4.12","167.0269439","1.46","0.15","1","123","7.37","1.08","18.11","1599.87","7.53","0","0.0244","448","25.98","75","11.94","7.12","42.82"
"92grass","51.93","42.1","2.247","262.31","SOR","20.54","3.95","33.67","8","32.23","Dc_FF_4","10.41","D. californica","French_flat","1","34.31","208","88","47.33","-123.63","1.44","12.33","5.39","sandy clay loam","4.55","0.37","103.35","280.39","28.84","19.93","22.09","4.25","4.12","216.480946","1.46","0.15","1","60","7.37","1.08","18.11","1599.87","7.53","0","0.0244","448","25.98","40","11.94","7.12","42.82"
"93grass","51.93","42.1","2.247","262.31","SOR","20.54","3.95","33.67","9","32.23","Dc_FF_5","10.41","D. californica","French_flat","2","34.31","271","89","47.33","-123.63","1.44","12.33","5.39","sandy clay loam","4.55","0.37","103.35","230.91","28.84","19.93","22.09","4.25","4.12","279.6462051","1.46","0.15","1","69","7.37","1.08","18.11","1599.87","7.53","0","0.0244","448","25.98","67.5","11.94","7.12","42.82"
"94grass","51.93","42.1","2.247","262.31","SOR","20.54","3.95","33.67","10","32.23","Dc_FF_6","10.41","D. californica","French_flat","2","34.31","446","90","47.33","-123.63","1.44","12.33","5.39","sandy clay loam","4.55","0.37","103.35","102.1","28.84","19.93","22.09","4.25","4.12","449.5019466","1.46","0.15","1","56","7.37","1.08","18.11","1599.87","7.53","0","0.0244","448","25.98","75","11.94","7.12","42.82"
"95grass","51.93","42.1","2.247","262.31","SOR","20.54","3.95","33.67","20","32.23","Dc_FF_7","10.41","D. californica","French_flat","1","34.31","499","91","47.33","-123.63","1.44","12.33","5.39","sandy clay loam","4.55","0.37","103.35","433.54","28.84","19.93","22.09","4.25","4.12","499.9619986","1.46","0.15","1","31","7.37","1.08","18.11","1599.87","7.53","0","0.0244","448","25.98","100","11.94","7.12","42.82"
"96grass","51.93","42.1","2.247","262.31","SOR","20.54","3.95","33.67","6","32.23","Dc_FF_8","10.41","D. californica","French_flat","2","34.31","533","92","47.33","-123.63","1.44","12.33","5.39","sandy clay loam","4.55","0.37","103.35","117.81","28.84","19.93","22.09","4.25","4.12","534.0833268","1.46","0.15","1","34","7.37","1.08","18.11","1599.87","7.53","0","0.0244","448","25.98","30","11.94","7.12","42.82"
"97grass","51.93","42.1","2.247","262.31","SOR","20.54","3.95","33.67","9","32.23","Dc_FF_9","10.41","D. californica","French_flat","2","34.31","592","93","47.33","-123.63","1.44","12.33","5.39","sandy clay loam","4.55","0.37","103.35","153.15","28.84","19.93","22.09","4.25","4.12","592.0684082","1.46","0.15","1","9","7.37","1.08","18.11","1599.87","7.53","0","0.0244","448","25.98","67.5","11.94","7.12","42.82"
"98grass","51.93","42.1","2.247","262.31","SOR","20.54","3.95","33.67","3","32.23","Dc_FF_10","10.41","D. californica","French_flat","1","34.31","1106","94","47.33","-123.63","1.44","12.33","5.39","sandy clay loam","4.55","0.37","103.35","204.2","28.84","19.93","22.09","4.25","4.12","1113.613937","1.46","0.15","1","130","7.37","1.08","18.11","1599.87","7.53","0","0.0244","448","25.98","15","11.94","7.12","42.82"
"99grass","51.93","42.1","2.247","262.31","SOR","20.54","3.95","33.67","5","32.23","Dc_FF_11","10.41","D. californica","French_flat","3","34.31","1239","95","47.33","-123.63","1.44","12.33","5.39","sandy clay loam","4.55","0.37","103.35","70.69","28.84","19.93","22.09","4.25","4.12","1244.701571","1.46","0.15","1","119","7.37","1.08","18.11","1599.87","7.53","0","0.0244","448","25.98","37.5","11.94","7.12","42.82"
"100grass","51.93","42.1","2.247","262.31","SOR","20.54","3.95","33.67","17","32.23","Dc_FF_12","10.41","D. californica","French_flat","1","34.31","1266","96","47.33","-123.63","1.44","12.33","5.39","sandy clay loam","4.55","0.37","103.35","155.51","28.84","19.93","22.09","4.25","4.12","1269.864953","1.46","0.15","1","99","7.37","1.08","18.11","1599.87","7.53","0","0.0244","448","25.98","127.5","11.94","7.12","42.82"
"101grass","61.58","42.42","1.617","78.24","SOR","20.85","5.11","41.62","33","36.28","Dc_WS_1","10.4","D. californica","Whetstone","3","16.39","30","97","42.66","-122.91","5.34","13.16","5.56","sandy loam","5.69","0.72","33.2","400.55","28.71","19.98","19.21","5.35","5.47","31.04834939","1.23","0.117","3","8","9.13","2.25","18.92","511.32","6.34","0","0.0293","382","19.21","247.5","12.55","8.12","0.53"
"102grass","61.58","42.42","1.617","78.24","SOR","20.85","5.11","41.62","18","36.28","Dc_WS_2","10.4","D. californica","Whetstone","3","16.39","72","98","42.66","-122.91","5.34","13.16","5.56","sandy loam","5.69","0.72","33.2","163.36","28.71","19.98","19.21","5.35","5.47","93.72299611","1.23","0.117","3","60","9.13","2.25","18.92","511.32","6.34","0","0.0293","382","19.21","135","12.55","8.12","0.53"
"103grass","61.58","42.42","1.617","78.24","SOR","20.85","5.11","41.62","4","36.28","Dc_WS_3","10.4","D. californica","Whetstone","3","16.39","154","99","42.66","-122.91","5.34","13.16","5.56","sandy loam","5.69","0.72","33.2","54.98","28.71","19.98","19.21","5.35","5.47","161.3071604","1.23","0.117","3","48","9.13","2.25","18.92","511.32","6.34","0","0.0293","382","19.21","30","12.55","8.12","0.53"
"104grass","61.58","42.42","1.617","78.24","SOR","20.85","5.11","41.62","16","36.28","Dc_WS_4","10.4","D. californica","Whetstone","2","16.39","508","100","42.66","-122.91","5.34","13.16","5.56","sandy loam","5.69","0.72","33.2","98.96","28.71","19.98","19.21","5.35","5.47","513.0769923","1.23","0.117","3","72","9.13","2.25","18.92","511.32","6.34","0","0.0293","382","19.21","160","12.55","8.12","0.53"
"105grass","61.58","42.42","1.617","78.24","SOR","20.85","5.11","41.62","18","36.28","Dc_WS_5","10.4","D. californica","Whetstone","1","16.39","712","101","42.66","-122.91","5.34","13.16","5.56","sandy loam","5.69","0.72","33.2","155.51","28.71","19.98","19.21","5.35","5.47","712.0849668","1.23","0.117","3","11","9.13","2.25","18.92","511.32","6.34","0","0.0293","382","19.21","135","12.55","8.12","0.53"
"106grass","61.58","42.42","1.617","78.24","SOR","20.85","5.11","41.62","23","36.28","Dc_WS_6","10.4","D. californica","Whetstone","3","16.39","813","102","42.66","-122.91","5.34","13.16","5.56","sandy loam","5.69","0.72","33.2","213.63","28.71","19.98","19.21","5.35","5.47","815.5151746","1.23","0.117","3","64","9.13","2.25","18.92","511.32","6.34","0","0.0293","382","19.21","172.5","12.55","8.12","0.53"
"107grass","61.58","42.42","1.617","78.24","SOR","20.85","5.11","41.62","22","36.28","Dc_WS_7","10.4","D. californica","Whetstone","2","16.39","922","103","42.66","-122.91","5.34","13.16","5.56","sandy loam","5.69","0.72","33.2","120.95","28.71","19.98","19.21","5.35","5.47","922.0542283","1.23","0.117","3","10","9.13","2.25","18.92","511.32","6.34","0","0.0293","382","19.21","165","12.55","8.12","0.53"
"108grass","61.58","42.42","1.617","78.24","SOR","20.85","5.11","41.62","17","36.28","Dc_WS_8","10.4","D. californica","Whetstone","2","16.39","1069","104","42.66","-122.91","5.34","13.16","5.56","sandy loam","5.69","0.72","33.2","160.22","28.71","19.98","19.21","5.35","5.47","1069.067351","1.23","0.117","3","12","9.13","2.25","18.92","511.32","6.34","1","0.0293","382","19.21","120","12.55","8.12","0.53"
"109grass","61.58","42.42","1.617","78.24","SOR","20.85","5.11","41.62","6","36.28","Dc_WS_9","10.4","D. californica","Whetstone","3","16.39","1414","105","42.66","-122.91","5.34","13.16","5.56","sandy loam","5.69","0.72","33.2","69.12","28.71","19.98","19.21","5.35","5.47","1414.171135","1.23","0.117","3","22","9.13","2.25","18.92","511.32","6.34","0","0.0293","382","19.21","30","12.55","8.12","0.53"
"110grass","61.58","42.42","1.617","78.24","SOR","20.85","5.11","41.62","2","36.28","Dc_WS_10","10.4","D. californica","Whetstone","2","16.39","1566","106","42.66","-122.91","5.34","13.16","5.56","sandy loam","5.69","0.72","33.2","102.1","28.71","19.98","19.21","5.35","5.47","1566.460979","1.23","0.117","3","38","9.13","2.25","18.92","511.32","6.34","0","0.0293","382","19.21","15","12.55","8.12","0.53"
"111grass","61.58","42.42","1.617","78.24","SOR","20.85","5.11","41.62","22","36.28","Dc_WS_11","10.4","D. californica","Whetstone","1","16.39","1757","107","42.66","-122.91","5.34","13.16","5.56","sandy loam","5.69","0.72","33.2","103.67","28.71","19.98","19.21","5.35","5.47","1757.150534","1.23","0.117","3","23","9.13","2.25","18.92","511.32","6.34","0","0.0293","382","19.21","165","12.55","8.12","0.53"
"112grass","61.58","42.42","1.617","78.24","SOR","20.85","5.11","41.62","18","36.28","Dc_WS_12","10.4","D. californica","Whetstone","2","16.39","2050","108","42.66","-122.91","5.34","13.16","5.56","sandy loam","5.69","0.72","33.2","77.75","28.71","19.98","19.21","5.35","5.47","2050.006098","1.23","0.117","3","5","9.13","2.25","18.92","511.32","6.34","1","0.0293","382","19.21","170","12.55","8.12","0.53"
"113grass","46.54","42.47","3.015","84.83","SOR","20.7","4.76","36.16","55","34.08","Dc_LT_1","10.32","D. californica","Lower_Table","4","17.62","2654","109","11","-122.95","2.08","12.9","5.36","sandy clay loam","5.2","0.39","37.17","164.93","28.57","19.86","19.56","4.81","5.1","2654.018839","1.23","0.188","4","10","8.78","1.51","18.68","558.49","6.95","0","0.0231","427","33.9","550","12.31","7.71","6.01"
"114grass","46.54","42.47","3.015","84.83","SOR","20.7","4.76","36.16","36","34.08","Dc_LT_2","10.32","D. californica","Lower_Table","3","17.62","2297","110","11","-122.95","2.08","12.9","5.36","sandy clay loam","5.2","0.39","37.17","122.52","28.57","19.86","19.56","4.81","5.1","2297.048976","1.23","0.188","4","15","8.78","1.51","18.68","558.49","6.95","0","0.0231","427","33.9","270","12.31","7.71","6.01"
"115grass","46.54","42.47","3.015","84.83","SOR","20.7","4.76","36.16","20","34.08","Dc_LT_3","10.32","D. californica","Lower_Table","3","17.62","2259","111","11","-122.95","2.08","12.9","5.36","sandy clay loam","5.2","0.39","37.17","81.68","28.57","19.86","19.56","4.81","5.1","2262.567126","1.23","0.188","4","127","8.78","1.51","18.68","558.49","6.95","0","0.0231","427","33.9","150","12.31","7.71","6.01"
"116grass","46.54","42.47","3.015","84.83","SOR","20.7","4.76","36.16","48","34.08","Dc_LT_4","10.32","D. californica","Lower_Table","3","17.62","2022","112","11","-122.95","2.08","12.9","5.36","sandy clay loam","5.2","0.39","37.17","311.02","28.57","19.86","19.56","4.81","5.1","2025.2111","1.23","0.188","4","114","8.78","1.51","18.68","558.49","6.95","0","0.0231","427","33.9","360","12.31","7.71","6.01"
"117grass","46.54","42.47","3.015","84.83","SOR","20.7","4.76","36.16","44","34.08","Dc_LT_5","10.32","D. californica","Lower_Table","2","17.62","1983","113","11","-122.95","2.08","12.9","5.36","sandy clay loam","5.2","0.39","37.17","212.06","28.57","19.86","19.56","4.81","5.1","1983.403388","1.23","0.188","4","40","8.78","1.51","18.68","558.49","6.95","0","0.0231","427","33.9","440","12.31","7.71","6.01"
"118grass","46.54","42.47","3.015","84.83","SOR","20.7","4.76","36.16","46","34.08","Dc_LT_6","10.32","D. californica","Lower_Table","3","17.62","1972","114","11","-122.95","2.08","12.9","5.36","sandy clay loam","5.2","0.39","37.17","212.06","28.57","19.86","19.56","4.81","5.1","1975.177967","1.23","0.188","4","112","8.78","1.51","18.68","558.49","6.95","0","0.0231","427","33.9","345","12.31","7.71","6.01"
"119grass","46.54","42.47","3.015","84.83","SOR","20.7","4.76","36.16","27","34.08","Dc_LT_7","10.32","D. californica","Lower_Table","2","17.62","1974","115","11","-122.95","2.08","12.9","5.36","sandy clay loam","5.2","0.39","37.17","163.36","28.57","19.86","19.56","4.81","5.1","1980.313107","1.23","0.188","4","158","8.78","1.51","18.68","558.49","6.95","0","0.0231","427","33.9","202.5","12.31","7.71","6.01"
"120grass","46.54","42.47","3.015","84.83","SOR","20.7","4.76","36.16","27","34.08","Dc_LT_8","10.32","D. californica","Lower_Table","2","17.62","1879","116","11","-122.95","2.08","12.9","5.36","sandy clay loam","5.2","0.39","37.17","183.78","28.57","19.86","19.56","4.81","5.1","1883.560989","1.23","0.188","4","131","8.78","1.51","18.68","558.49","6.95","0","0.0231","427","33.9","202.5","12.31","7.71","6.01"
"121grass","46.54","42.47","3.015","84.83","SOR","20.7","4.76","36.16","32","34.08","Dc_LT_9","10.32","D. californica","Lower_Table","1","17.62","1915","117","11","-122.95","2.08","12.9","5.36","sandy clay loam","5.2","0.39","37.17","164.93","28.57","19.86","19.56","4.81","5.1","1915.009399","1.23","0.188","4","6","8.78","1.51","18.68","558.49","6.95","0","0.0231","427","33.9","240","12.31","7.71","6.01"
"122grass","46.54","42.47","3.015","84.83","SOR","20.7","4.76","36.16","16","34.08","Dc_LT_10","10.32","D. californica","Lower_Table","4","17.62","1844","118","11","-122.95","2.08","12.9","5.36","sandy clay loam","5.2","0.39","37.17","86.39","28.57","19.86","19.56","4.81","5.1","1844.156176","1.23","0.188","4","24","8.78","1.51","18.68","558.49","6.95","0","0.0231","427","33.9","120","12.31","7.71","6.01"
"123grass","46.54","42.47","3.015","84.83","SOR","20.7","4.76","36.16","21","34.08","Dc_LT_11","10.32","D. californica","Lower_Table","2","17.62","1767","119","11","-122.95","2.08","12.9","5.36","sandy clay loam","5.2","0.39","37.17","173.57","28.57","19.86","19.56","4.81","5.1","1770.673601","1.23","0.188","4","114","8.78","1.51","18.68","558.49","6.95","0","0.0231","427","33.9","105","12.31","7.71","6.01"
"124grass","46.54","42.47","3.015","84.83","SOR","20.7","4.76","36.16","7","34.08","Dc_LT_12","10.32","D. californica","Lower_Table","2","17.62","1707","120","11","-122.95","2.08","12.9","5.36","sandy clay loam","5.2","0.39","37.17","94.25","28.57","19.86","19.56","4.81","5.1","1711.142893","1.23","0.188","4","119","8.78","1.51","18.68","558.49","6.95","0","0.0231","427","33.9","52.5","12.31","7.71","6.01"
"125grass","33.93","44.02","3.682","169.03","COR","17.87","5.4","25.38","11","21.98","Dc_HD_1","9.62","D. californica","Hazel_Dell","2","33","61","121","70.33","-123.22","3.4","11.71","5.72","clay","6.81","1.82","77.78","86.39","24.47","17.32","16.18","6.65","5.54","166.5713061","0.96","0.297","6","155","8.84","3.32","16.66","1119.22","6.15","0","0.0308","168","49.89","82.5","11.36","9.82","16.8"
"126grass","33.93","44.02","3.682","169.03","COR","17.87","5.4","25.38","5","21.98","Dc_HD_2","9.62","D. californica","Hazel_Dell","3","33","2733","122","70.33","-123.22","3.4","11.71","5.72","clay","6.81","1.82","77.78","157.08","24.47","17.32","16.18","6.65","5.54","2735.995797","0.96","0.297","6","128","8.84","3.32","16.66","1119.22","6.15","0","0.0308","168","49.89","37.5","11.36","9.82","16.8"
"127grass","33.93","44.02","3.682","169.03","COR","17.87","5.4","25.38","7","21.98","Dc_HD_3","9.62","D. californica","Hazel_Dell","3","33","2543","123","70.33","-123.22","3.4","11.71","5.72","clay","6.81","1.82","77.78","141.37","24.47","17.32","16.18","6.65","5.54","2544.88762","0.96","0.297","6","98","8.84","3.32","16.66","1119.22","6.15","0","0.0308","168","49.89","70","11.36","9.82","16.8"
"128grass","33.93","44.02","3.682","169.03","COR","17.87","5.4","25.38","4","21.98","Dc_HD_4","9.62","D. californica","Hazel_Dell","3","33","2369","124","70.33","-123.22","3.4","11.71","5.72","clay","6.81","1.82","77.78","94.25","24.47","17.32","16.18","6.65","5.54","2369.709898","0.96","0.297","6","58","8.84","3.32","16.66","1119.22","6.15","0","0.0308","168","49.89","30","11.36","9.82","16.8"
"129grass","33.93","44.02","3.682","169.03","COR","17.87","5.4","25.38","4","21.98","Dc_HD_5","9.62","D. californica","Hazel_Dell","3","33","2371","125","70.33","-123.22","3.4","11.71","5.72","clay","6.81","1.82","77.78","117.81","24.47","17.32","16.18","6.65","5.54","2371.142552","0.96","0.297","6","26","8.84","3.32","16.66","1119.22","6.15","0","0.0308","168","49.89","30","11.36","9.82","16.8"
"130grass","33.93","44.02","3.682","169.03","COR","17.87","5.4","25.38","5","21.98","Dc_HD_6","9.62","D. californica","Hazel_Dell","1","33","2190","126","70.33","-123.22","3.4","11.71","5.72","clay","6.81","1.82","77.78","102.1","24.47","17.32","16.18","6.65","5.54","2190.166432","0.96","0.297","6","27","8.84","3.32","16.66","1119.22","6.15","0","0.0308","168","49.89","25","11.36","9.82","16.8"
"131grass","33.93","44.02","3.682","169.03","COR","17.87","5.4","25.38","4","21.98","Dc_HD_7","9.62","D. californica","Hazel_Dell","4","33","2207","127","70.33","-123.22","3.4","11.71","5.72","clay","6.81","1.82","77.78","43.98","24.47","17.32","16.18","6.65","5.54","2208.449456","0.96","0.297","6","80","8.84","3.32","16.66","1119.22","6.15","0","0.0308","168","49.89","30","11.36","9.82","16.8"
"132grass","33.93","44.02","3.682","169.03","COR","17.87","5.4","25.38","3","21.98","Dc_HD_8","9.62","D. californica","Hazel_Dell","3","33","1785","128","70.33","-123.22","3.4","11.71","5.72","clay","6.81","1.82","77.78","70.69","24.47","17.32","16.18","6.65","5.54","1785.161337","0.96","0.297","6","24","8.84","3.32","16.66","1119.22","6.15","0","0.0308","168","49.89","22.5","11.36","9.82","16.8"
"133grass","33.93","44.02","3.682","169.03","COR","17.87","5.4","25.38","5","21.98","Dc_HR_9","9.62","D. californica","Hazel_Dell","2","33","1668","129","70.33","-123.22","3.4","11.71","5.72","clay","6.81","1.82","77.78","102.1","24.47","17.32","16.18","6.65","5.54","1668.580235","0.96","0.297","6","44","8.84","3.32","16.66","1119.22","6.15","0","0.0308","168","49.89","37.5","11.36","9.82","16.8"
"134grass","33.93","44.02","3.682","169.03","COR","17.87","5.4","25.38","4","21.98","Dc_HD_10","9.62","D. californica","Hazel_Dell","2","33","1604","130","70.33","-123.22","3.4","11.71","5.72","clay","6.81","1.82","77.78","70.69","24.47","17.32","16.18","6.65","5.54","1604.194814","0.96","0.297","6","25","8.84","3.32","16.66","1119.22","6.15","0","0.0308","168","49.89","20","11.36","9.82","16.8"
"135grass","33.93","44.02","3.682","169.03","COR","17.87","5.4","25.38","4","21.98","Dc_HD_11","9.62","D. californica","Hazel_Dell","2","33","1480","131","70.33","-123.22","3.4","11.71","5.72","clay","6.81","1.82","77.78","133.52","24.47","17.32","16.18","6.65","5.54","1480.62453","0.96","0.297","6","43","8.84","3.32","16.66","1119.22","6.15","0","0.0308","168","49.89","30","11.36","9.82","16.8"
"136grass","33.93","44.02","3.682","169.03","COR","17.87","5.4","25.38","12","21.98","Dc_HD_12","9.62","D. californica","Hazel_Dell","3","33","1444","132","70.33","-123.22","3.4","11.71","5.72","clay","6.81","1.82","77.78","113.1","24.47","17.32","16.18","6.65","5.54","1446.383421","0.96","0.297","6","83","8.84","3.32","16.66","1119.22","6.15","0","0.0308","168","49.89","90","11.36","9.82","16.8"
"137grass","74","44.3","6.911","283.79","COR","15.13","3.49","14.95","3","5.71","Dc_HR_1","6.72","D. californica","Horse_Rock","1","80.06","1263","133","17.5","-122.88","9.24","9.33","3.16","sandy loam","4.71","-0.39","176.14","86.39","21.84","14.56","19.5","4.39","3.53","1276.332637","0.62","0.502","7","145","7.33","0.69","14.59","2159.97","5.92","0","0.0285","791","6.5","22.5","9.03","7.77","1.47"
"138grass","74","44.3","6.911","283.79","COR","15.13","3.49","14.95","8","5.71","Dc_HR_2","6.72","D. californica","Horse_Rock","2","80.06","-150","134","17.5","-122.88","9.24","9.33","3.16","sandy loam","4.71","-0.39","176.14","103.67","21.84","14.56","19.5","4.39","3.53","154.4959546","0.62","0.502","7","37","7.33","0.69","14.59","2159.97","5.92","0","0.0285","791","6.5","60","9.03","7.77","1.47"
"139grass","74","44.3","6.911","283.79","COR","15.13","3.49","14.95","15","5.71","Dc_HR_3","6.72","D. californica","Horse_Rock","2","80.06","-33","135","17.5","-122.88","9.24","9.33","3.16","sandy loam","4.71","-0.39","176.14","74.61","21.84","14.56","19.5","4.39","3.53","72.89718787","0.62","0.502","7","65","7.33","0.69","14.59","2159.97","5.92","0","0.0285","791","6.5","112.5","9.03","7.77","1.47"
"140grass","74","44.3","6.911","283.79","COR","15.13","3.49","14.95","5","5.71","Dc_HR_4","6.72","D. californica","Horse_Rock","2","80.06","-33","136","17.5","-122.88","9.24","9.33","3.16","sandy loam","4.71","-0.39","176.14","109.17","21.84","14.56","19.5","4.39","3.53","191.8593235","0.62","0.502","7","189","7.33","0.69","14.59","2159.97","5.92","0","0.0285","791","6.5","37.5","9.03","7.77","1.47"
"141grass","74","44.3","6.911","283.79","COR","15.13","3.49","14.95","19","5.71","Dc_HR_5","6.72","D. californica","Horse_Rock","2","80.06","75","137","17.5","-122.88","9.24","9.33","3.16","sandy loam","4.71","-0.39","176.14","112.31","21.84","14.56","19.5","4.39","3.53","87.46427842","0.62","0.502","7","-45","7.33","0.69","14.59","2159.97","5.92","0","0.0285","791","6.5","190","9.03","7.77","1.47"
"142grass","74","44.3","6.911","283.79","COR","15.13","3.49","14.95","4","5.71","Dc_HR_6","6.72","D. californica","Horse_Rock","1","80.06","59","138","17.5","-122.88","9.24","9.33","3.16","sandy loam","4.71","-0.39","176.14","155.51","21.84","14.56","19.5","4.39","3.53","124.8238759","0.62","0.502","7","110","7.33","0.69","14.59","2159.97","5.92","0","0.0285","791","6.5","30","9.03","7.77","1.47"
"143grass","74","44.3","6.911","283.79","COR","15.13","3.49","14.95","19","5.71","Dc_HR_8","6.72","D. californica","Horse_Rock","2","80.06","78","139","17.5","-122.88","9.24","9.33","3.16","sandy loam","4.71","-0.39","176.14","112.31","21.84","14.56","19.5","4.39","3.53","189.7709145","0.62","0.502","7","173","7.33","0.69","14.59","2159.97","5.92","0","0.0285","791","6.5","142.5","9.03","7.77","1.47"
"144grass","74","44.3","6.911","283.79","COR","15.13","3.49","14.95","18","5.71","Dc_HD_9","6.72","D. californica","Horse_Rock","2","80.06","107","140","17.5","-122.88","9.24","9.33","3.16","sandy loam","4.71","-0.39","176.14","129.59","21.84","14.56","19.5","4.39","3.53","233.0193125","0.62","0.502","7","207","7.33","0.69","14.59","2159.97","5.92","0","0.0285","791","6.5","135","9.03","7.77","1.47"
"145grass","74","44.3","6.911","283.79","COR","15.13","3.49","14.95","4","5.71","Dc_HR_10","6.72","D. californica","Horse_Rock","3","80.06","150","141","17.5","-122.88","9.24","9.33","3.16","sandy loam","4.71","-0.39","176.14","62.83","21.84","14.56","19.5","4.39","3.53","186.0107524","0.62","0.502","7","110","7.33","0.69","14.59","2159.97","5.92","0","0.0285","791","6.5","40","9.03","7.77","1.47"
"146grass","74","44.3","6.911","283.79","COR","15.13","3.49","14.95","11","5.71","Dc_HR_11","6.72","D. californica","Horse_Rock","2","80.06","109","142","17.5","-122.88","9.24","9.33","3.16","sandy loam","4.71","-0.39","176.14","153.15","21.84","14.56","19.5","4.39","3.53","132.8796448","0.62","0.502","7","76","7.33","0.69","14.59","2159.97","5.92","0","0.0285","791","6.5","82.5","9.03","7.77","1.47"
"147grass","74","44.3","6.911","283.79","COR","15.13","3.49","14.95","12","5.71","Dc_HR_12","6.72","D. californica","Horse_Rock","2","80.06","61","143","17.5","-122.88","9.24","9.33","3.16","sandy loam","4.71","-0.39","176.14","109.96","21.84","14.56","19.5","4.39","3.53","166.5713061","0.62","0.502","7","155","7.33","0.69","14.59","2159.97","5.92","0","0.0285","791","6.5","90","9.03","7.77","1.47"
"148grass","84.47","48.21","11.9","62.58","WA","15.13","6.43","114.12","2","109.52","Dc_WH_1","8.5","D. californica","Whidbey","1","29.87","280","144","35.6","-122.62","4.6","10.87","5.68","loamy fine sand","6.26","2.86","42.74","25.53","19.27","14.3","10.36","6.28","6.61","334.4981315","1.02","0.9","9","183","9.81","2.49","14.54","540.75","6.01","0","0.03","64","5.18","10","10.37","10.09","2.62"
"149grass","84.47","48.21","11.9","62.58","WA","15.13","6.43","114.12","3","109.52","Dc_WH_2","8.5","D. californica","Whidbey","3","29.87","295","145","35.6","-122.62","4.6","10.87","5.68","loamy fine sand","6.26","2.86","42.74","82.47","19.27","14.3","10.36","6.28","6.61","341.9853798","1.02","0.9","9","173","9.81","2.49","14.54","540.75","6.01","0","0.03","64","5.18","30","10.37","10.09","2.62"
"150grass","84.47","48.21","11.9","62.58","WA","15.13","6.43","114.12","10","109.52","Dc_WH_3","8.5","D. californica","Whidbey","2","29.87","380","146","35.6","-122.62","4.6","10.87","5.68","loamy fine sand","6.26","2.86","42.74","94.25","19.27","14.3","10.36","6.28","6.61","390.9782603","1.02","0.9","9","92","9.81","2.49","14.54","540.75","6.01","0","0.03","64","5.18","75","10.37","10.09","2.62"
"151grass","84.47","48.21","11.9","62.58","WA","15.13","6.43","114.12","2","109.52","Dc_WH_4","8.5","D. californica","Whidbey","1","29.87","356","147","35.6","-122.62","4.6","10.87","5.68","loamy fine sand","6.26","2.86","42.74","22.97","19.27","14.3","10.36","6.28","6.61","411.3052395","1.02","0.9","9","206","9.81","2.49","14.54","540.75","6.01","0","0.03","64","5.18","15","10.37","10.09","2.62"
"152grass","84.47","48.21","11.9","62.58","WA","15.13","6.43","114.12","1","109.52","Dc_WH_5","8.5","D. californica","Whidbey","2","29.87","415","148","35.6","-122.62","4.6","10.87","5.68","loamy fine sand","6.26","2.86","42.74","13.74","19.27","14.3","10.36","6.28","6.61","432.8440828","1.02","0.9","9","123","9.81","2.49","14.54","540.75","6.01","0","0.03","64","5.18","7.5","10.37","10.09","2.62"
"153grass","84.47","48.21","11.9","62.58","WA","15.13","6.43","114.12","4","109.52","Dc_WH_6","8.5","D. californica","Whidbey","1","29.87","430","149","35.6","-122.62","4.6","10.87","5.68","loamy fine sand","6.26","2.86","42.74","42.41","19.27","14.3","10.36","6.28","6.61","446.9720349","1.02","0.9","9","122","9.81","2.49","14.54","540.75","6.01","2","0.03","64","5.18","15","10.37","10.09","2.62"
"154grass","84.47","48.21","11.9","62.58","WA","15.13","6.43","114.12","4","109.52","Dc_WH_7","8.5","D. californica","Whidbey","1","29.87","370","150","35.6","-122.62","4.6","10.87","5.68","loamy fine sand","6.26","2.86","42.74","35.34","19.27","14.3","10.36","6.28","6.61","390.5444917","1.02","0.9","9","125","9.81","2.49","14.54","540.75","6.01","0","0.03","64","5.18","30","10.37","10.09","2.62"
"155grass","84.47","48.21","11.9","62.58","WA","15.13","6.43","114.12","3","109.52","Dc_WH_8","8.5","D. californica","Whidbey","2","29.87","445","151","35.6","-122.62","4.6","10.87","5.68","loamy fine sand","6.26","2.86","42.74","42.41","19.27","14.3","10.36","6.28","6.61","470.5677422","1.02","0.9","9","153","9.81","2.49","14.54","540.75","6.01","1","0.03","64","5.18","15","10.37","10.09","2.62"
"156grass","84.47","48.21","11.9","62.58","WA","15.13","6.43","114.12","12","109.52","Dc_WH_9","8.5","D. californica","Whidbey","2","29.87","524","152","35.6","-122.62","4.6","10.87","5.68","loamy fine sand","6.26","2.86","42.74","213.63","19.27","14.3","10.36","6.28","6.61","539.885173","1.02","0.9","9","130","9.81","2.49","14.54","540.75","6.01","0","0.03","64","5.18","90","10.37","10.09","2.62"
"157grass","84.47","48.21","11.9","62.58","WA","15.13","6.43","114.12","8","109.52","Dc_WH_10","8.5","D. californica","Whidbey","2","29.87","544","153","35.6","-122.62","4.6","10.87","5.68","loamy fine sand","6.26","2.86","42.74","125.66","19.27","14.3","10.36","6.28","6.61","560.022321","1.02","0.9","9","133","9.81","2.49","14.54","540.75","6.01","0","0.03","64","5.18","60","10.37","10.09","2.62"
"158grass","84.47","48.21","11.9","62.58","WA","15.13","6.43","114.12","10","109.52","Dc_WH_11","8.5","D. californica","Whidbey","2","29.87","572","154","35.6","-122.62","4.6","10.87","5.68","loamy fine sand","6.26","2.86","42.74","186.92","19.27","14.3","10.36","6.28","6.61","585.9291766","1.02","0.9","9","127","9.81","2.49","14.54","540.75","6.01","0","0.03","64","5.18","75","10.37","10.09","2.62"
"159grass","84.47","48.21","11.9","62.58","WA","15.13","6.43","114.12","4","109.52","Dc_WH_12","8.5","D. californica","Whidbey","1","29.87","662","155","35.6","-122.62","4.6","10.87","5.68","loamy fine sand","6.26","2.86","42.74","49.48","19.27","14.3","10.36","6.28","6.61","675.6248959","1.02","0.9","9","135","9.81","2.49","14.54","540.75","6.01","0","0.03","64","5.18","30","10.37","10.09","2.62"
